frequency,node_9_accel_x_sd,node_9_accel_x_sv,node_9_accel_x_sa
0.01,0.11063001713067,0.0069510897481517,0.0004367498979033
0.010232929922808,0.11062233946261,0.0071125077892437,0.00045730154775068
0.010471285480509,0.11061450118488,0.0072776636741998,0.00047881957598165
0.010715193052376,0.1106064406596,0.0074466395586793,0.00050134911119276
0.010964781961432,0.11059815084705,0.0076195229600435,0.00052493762051156
0.01122018454302,0.11058962445641,0.0077964033517292,0.00054963479188604
0.011481536214969,0.11058085393554,0.0079773722039385,0.0005754926374259
0.011748975549395,0.11057183146065,0.008162523024999,0.00060256560150537
0.012022644346174,0.11056254892572,0.0083519514033825,0.00063091067384246
0.012302687708124,0.11055299793137,0.0085457550503696,0.00066058750777845
0.012589254117942,0.11054316977227,0.008744033843262,0.00069165854398441
0.012882495516931,0.11053305542639,0.0089468898694093,0.00072418913986001
0.013182567385564,0.11052264554094,0.009154427470639,0.0007582477048484
0.013489628825917,0.11051193041979,0.0093667532884484,0.00079390584196102
0.013803842646029,0.1105009000091,0.009583976309689,0.00083123849576899
0.014125375446228,0.11048954388356,0.0098062079129339,0.00087032410716642
0.014454397707459,0.11047785123069,0.010033561915286,0.00091124477518724
0.014791083881682,0.1104658108351,0.010266154619784,0.00095408642620326
0.015135612484362,0.11045341106289,0.010504104863389,0.00099893899083164
0.015488166189125,0.11044063984356,0.010747534065309,0.0010458965888698
0.015848931924611,0.11042748465321,0.010996566275964,0.0010950577226442
0.016218100973589,0.11041393249471,0.011251328226166,0.001146525479101
0.016595869074376,0.11039996987959,0.011511949376941,0.0012004077410691
0.016982436524617,0.11038558280618,0.011778561969404,0.0012568174080368
0.017378008287494,0.11037075674044,0.012051301075313,0.0013158726269259
0.017782794100389,0.11035547659295,0.012330304647581,0.0013776970332243
0.0181970085861,0.11033972669491,0.012615713570978,0.0014424200029517
0.018620871366629,0.1103234907764,0.012907671713343,0.0015101769159672
0.019054607179632,0.11030675193956,0.01320632597643,0.0015811094310102
0.01949844599758,0.11028949263274,0.013511826346996,0.0016553657730507
0.019952623149689,0.11027169462466,0.013824325947959,0.0017331010334603
0.020417379446695,0.11025333897372,0.014143981088978,0.0018144774834715
0.02089296130854,0.11023440600053,0.014470951317326,0.0018996649016045
0.021379620895022,0.11021487525514,0.014805399467936,0.0019888409155092
0.021877616239496,0.11019472548641,0.015147491713436,0.0020821913589403
0.022387211385683,0.11017393460725,0.015497397613281,0.002179910644385
0.022908676527678,0.11015247965982,0.015855290162376,0.0022822021520486
0.023442288153199,0.11013033677833,0.016221345838751,0.0023892786358223
0.023988329190195,0.11010748115182,0.016595744650496,0.0025013626469643
0.02454708915685,0.11008388698311,0.016978670181242,0.0026186869761204
0.025118864315096,0.11005952744828,0.01737030963467,0.0027414951145061
0.025703957827689,0.11003437465185,0.017770853877162,0.0028700417348911
0.026302679918954,0.11000839958281,0.018180497479165,0.003004593193278
0.026915348039269,0.10998157206559,0.018599438754159,0.003145428051923
0.027542287033382,0.10995386071268,0.019027879796077,0.0032928376246836
0.028183829312645,0.10992523287125,0.019466026513692,0.0034471265453272
0.028840315031266,0.10989565457027,0.019914088662788,0.0036086133598285
0.029512092266664,0.10986509046437,0.020372279875202,0.0037776311434264
0.03019951720402,0.10983350377494,0.020840817684542,0.0039545281433461
0.030902954325136,0.10980085622943,0.021319923548403,0.004139668448122
0.031622776601684,0.1097671079971,0.021809822866444,0.0043334326843906
0.032359365692963,0.10973221762319,0.022310744994311,0.004536218742161
0.033113112148259,0.10969614195891,0.02282292325251,0.0047484425294109
0.03388441561392,0.10965883608899,0.023346594930138,0.0049705387570372
0.034673685045253,0.10962025325692,0.023882001283053,0.0052029617551328
0.035481338923358,0.10958034478561,0.024429387525534,0.0054461863214642
0.03630780547701,0.10953905999493,0.024989002815166,0.0057007086031712
0.037153522909717,0.10949634611732,0.025561100230685,0.0059670470127198
0.038018939632056,0.10945214820715,0.026145936741203,0.0062457431788473
0.038904514499428,0.10940640904726,0.026743773166929,0.006537362933603
0.03981071705535,0.10935906905378,0.027354874130946,0.0068424973364752
0.040738027780411,0.10931006617246,0.027979507999717,0.0071617637361148
0.041686938347034,0.10925933577484,0.028617946813502,0.0074958068709862
0.042657951880159,0.10920681054661,0.029270466203935,0.0078453000092884
0.043651583224017,0.10915305792658,0.029937520161536,0.0082109940889173
0.044668359215096,0.10909778599755,0.03061934198956,0.0085936125586881
0.045708818961488,0.10904054087434,0.031316117457862,0.0089938953417775
0.04677351412872,0.10898124499644,0.032028137270836,0.0094126432219877
0.047863009232264,0.10891981756538,0.032755695219213,0.0098506919427211
0.048977881936845,0.10885617440696,0.03349908801142,0.010308913607431
0.050118723362727,0.10879022782793,0.0342586150852,0.010788218123895
0.051286138399136,0.1087218864653,0.035034578397535,0.011289554692236
0.052480746024977,0.10865105513113,0.035827282192145,0.011813913336842
0.053703179637025,0.1085776346496,0.036637032741985,0.012362326481592
0.054954087385762,0.1085015216881,0.037464138065534,0.012935870568047
0.056234132519035,0.10842260858111,0.038308907614547,0.013535667715668
0.057543993733716,0.10834078314687,0.039171651931328,0.014162887423003
0.058884365535559,0.10825592849762,0.040052682273669,0.014818748308558
0.060255958607436,0.10816792283929,0.040952310203645,0.015504519889018
0.061659500186148,0.10807663926728,0.041870847140307,0.016221524393549
0.063095734448019,0.10798194555131,0.042808603871102,0.016971138610594
0.064565422903466,0.10788370391188,0.043765890020165,0.017754795764351
0.06606934480076,0.10778352108542,0.044743740064322,0.018574289045141
0.067608297539198,0.10767984564067,0.045741914792973,0.019430959958001
0.069183097091894,0.10757225754502,0.04676061336312,0.020326383511846
0.070794578438414,0.10746059793446,0.047800140043269,0.02126224339036
0.072443596007499,0.10734470129099,0.048860794897557,0.022240289919381
0.074131024130092,0.10722439516654,0.049942872948035,0.023262342067114
0.075857757502918,0.10709949990041,0.051046663271234,0.024330289436924
0.077624711662869,0.10696982832357,0.052172448021559,0.025446094241908
0.079432823472428,0.10683518545163,0.053320501377475,0.026611793250759
0.08128305161641,0.10669536817051,0.054491088407547,0.027829499693874
0.083176377110267,0.1065513548708,0.055685085737258,0.029101730121833
0.085113803820238,0.10640363155383,0.056903157668294,0.030431004142793
0.087096358995608,0.10625019771896,0.058144636946287,0.031819223664487
0.089125093813375,0.10609081952694,0.059409749405139,0.03326883834171
0.091201083935591,0.1059252534554,0.060698705354879,0.034782383912913
0.093325430079699,0.10575324591806,0.062011697872262,0.036362483625139
0.095499258602144,0.10557453287161,0.063348900966379,0.038011849491471
0.097723722095581,0.10538903528233,0.064710587879973,0.039733357199388
0.1,0.10520011227265,0.066099187262994,0.041531348802222
0.10232929922808,0.10500378931123,0.067512608484356,0.043407503045933
0.10471285480509,0.10479976308028,0.068950944104458,0.045364918327668
0.10715193052376,0.1045877179042,0.070414257330124,0.047406786711747
0.10964781961432,0.10436732529065,0.071902579314382,0.049536393671711
0.1122018454302,0.10414038898935,0.073417418836339,0.051758183745036
0.11481536214969,0.10390733729461,0.074959405251336,0.054076185396828
0.11748975549395,0.10366507773878,0.076526595675696,0.056492697188428
0.12022644346174,0.10341323402577,0.078118885051224,0.059011404673079
0.12302687708124,0.10315141485441,0.079736121221435,0.061636081641856
0.12589254117942,0.10288464498613,0.081382397443824,0.064373985200584
0.12882495516931,0.10260776495854,0.083053921678803,0.067226431732688
0.13182567385564,0.1023198890582,0.084750052679494,0.070197216741422
0.13489628825917,0.1020216570194,0.086471359947247,0.073291262949241
0.13803842646029,0.10171725702219,0.088221524123968,0.076516390105345
0.14125375446228,0.10140074426622,0.089995554859801,0.079873179956745
0.14454397707459,0.1010716288418,0.091792919084338,0.083366025566009
0.14791083881682,0.10073661768401,0.093619707781066,0.087005598227501
0.15135612484362,0.10038865817142,0.095469481872959,0.090791351683653
0.15488166189125,0.10002812663689,0.097342400410018,0.094728785154413
0.15848931924611,0.099660330211906,0.099243537938163,0.098828488743126
0.16218100973589,0.099277871101327,0.10116548592358,0.10308899081557
0.16595869074376,0.098886528656772,0.10311386073744,0.10752190839953
0.16982436524617,0.098482370657786,0.10508443912674,0.11212909755141
0.17378008287494,0.098067256425457,0.10707891000444,0.11691866771509
0.17782794100389,0.097640292665632,0.10909604050617,0.12189584575378
0.181970085861,0.097202504840953,0.11113666819619,0.1270683202862
0.18620871366629,0.096751590639778,0.11319781135761,0.13243962617484
0.19054607179632,0.096292228300374,0.11528456178534,0.13802287495704
0.1949844599758,0.095819506815214,0.11739074193162,0.14381817178242
0.19952623149689,0.095336305362045,0.11951935303843,0.14983668285107
0.20417379446695,0.094844159765301,0.12167196155757,0.15608832706095
0.2089296130854,0.0943406485742,0.12384508451524,0.16257684455628
0.21379620895022,0.093826329368299,0.12603891114444,0.16931075988403
0.21877616239496,0.093301941689807,0.12825390528951,0.17629927013414
0.22387211385683,0.092769973977674,0.13049304070249,0.18355544301305
0.22908676527678,0.092227679209964,0.13275203784721,0.19108258717502
0.23442288153199,0.091674920973535,0.13503005995933,0.19888882258087
0.23988329190195,0.091111439915953,0.13732601779341,0.20698207799583
0.2454708915685,0.090536953270126,0.13963869835227,0.21537024798414
0.25118864315096,0.089955324181501,0.14197333666129,0.22407154335937
0.25703957827689,0.089362578283627,0.14432301958269,0.23308564257575
0.26302679918954,0.08875868529098,0.14668671304248,0.2424212539051
0.26915348039269,0.088144037988584,0.14906403002997,0.25208834943158
0.27542287033382,0.087519352338817,0.15145513812244,0.26209813316355
0.28183829312645,0.086887078574727,0.1538633242846,0.27246770116164
0.28840315031266,0.086247118375347,0.15628759562448,0.28320728861666
0.29512092266664,0.085600655386932,0.15872926529004,0.29433162100956
0.3019951720402,0.084953692408141,0.16119893787006,0.30587366874643
0.30902954325136,0.084307159507636,0.16369837695346,0.31785151787458
0.31622776601684,0.083671016032739,0.16624743714462,0.33032000407812
0.32359365692963,0.083043095872797,0.16884315068874,0.34329174791566
0.33113112148259,0.082419096760738,0.17147774628357,0.35676947001557
0.3388441561392,0.081793632904741,0.1741403505087,0.37074843845867
0.34673685045253,0.081163873396899,0.1768245986496,0.38523221451858
0.35481338923358,0.080526791479134,0.17952308865978,0.40022132721257
0.3630780547701,0.079879323506961,0.18222765834228,0.4157135790217
0.37153522909717,0.079228932611901,0.18495399704872,0.43176122530725
0.38018939632056,0.078565847426043,0.18767815072324,0.44832569637909
0.38904514499428,0.077888038283795,0.1903928706205,0.46540452143674
0.3981071705535,0.077207617796266,0.19312569913414,0.48308103177682
0.40738027780411,0.076510463812805,0.19583970710758,0.50128033433204
0.41686938347034,0.075802935161287,0.19854819282661,0.52005090292132
0.42657951880159,0.075086390792979,0.20125243591317,0.5394125690853
0.43651583224017,0.074351304615589,0.20392407901783,0.55930464459599
0.44668359215096,0.077194015171974,0.21665242135629,0.60805583923795
0.45708818961488,0.08061726827992,0.23153038515238,0.66494834658348
0.4677351412872,0.083984039575049,0.24681791331681,0.72536499366201
0.47863009232264,0.087279422140468,0.2624773172087,0.7893537830509
0.48977881936845,0.09048749569978,0.27846363322005,0.85693602664594
0.50118723362727,0.093591333064605,0.29472403163292,0.9281014809566
0.51286138399136,0.096573018643017,0.31119723017457,1.0028030336952
0.52480746024977,0.099413680852836,0.32781292306602,1.0809509476685
0.53703179637025,0.10209354042359,0.34449123848713,1.1624066802073
0.54954087385762,0.10459197667476,0.36114223964105,1.2469763111804
0.56234132519035,0.10688761395965,0.377665487107,1.3344036307669
0.57543993733716,0.1089584305301,0.39394968281917,1.4243629596927
0.58884365535559,0.1107818921144,0.40987241882382,1.5164518000741
0.60255958607436,0.11233511248608,0.42530005685016,1.610183444461
0.61659500186148,0.11359504323674,0.44008776767192,1.7049797045354
0.63095734448019,0.11453869482958,0.45407976211567,1.8001639591739
0.64565422903466,0.11514339079106,0.46710974829216,1.8949547642339
0.6606934480076,0.11538705658162,0.47900165205994,1.9884603132575
0.67608297539198,0.11524854425547,0.48957063970354,2.0796740887974
0.69183097091894,0.11470799345696,0.49862448312527,2.1674720974456
0.70794578438414,0.11374722858883,0.50596530827011,2.2506121366547
0.72443596007499,0.11235019111111,0.51139176676267,2.3277355964086
0.74131024130092,0.11050340486903,0.51470166850812,2.397372351368
0.75857757502918,0.1081964710938,0.51569510895912,2.4579493463684
0.77624711662869,0.10545847516074,0.51435314985394,2.5086571976452
0.79432823472428,0.10255978965141,0.51186688938331,2.5546826230581
0.8128305161641,0.099576078962795,0.50855149713407,2.5972565693607
0.83176377110267,0.096518103851616,0.50441581852166,2.636140867065
0.85113803820238,0.093387054471399,0.49942076291591,2.6708316248254
0.87096358995608,0.090221395629163,0.49372993239229,2.7019006349897
0.89125093813375,0.087018199765733,0.48729281806101,2.7287888185816
0.91201083935591,0.083833028168195,0.48039122964486,2.752802070524
0.93325430079699,0.080731024751712,0.47339141908706,2.7758775062558
0.95499258602144,0.077745681359947,0.46650487907196,2.7992140321
0.97723722095581,0.074894644828841,0.45986534395658,2.8236482735928
1,0.072174029970351,0.45348285467329,2.8493171237233
1.0232929922808,0.069583347830013,0.44738893233216,2.8765051268053
1.0471285480509,0.067127753642524,0.4416538600109,2.905774757506
1.0715193052376,0.064791622607994,0.43621316905818,2.9368291948951
1.0964781961432,0.062572638576868,0.43108646270794,2.9699169246595
1.122018454302,0.060467723664951,0.42628842060919,3.0052696964812
1.1481536214969,0.058467948849934,0.42179145247753,3.0428300099894
1.1748975549395,0.056566531935936,0.41757978797314,3.0826156979392
1.2022644346174,0.054758641925282,0.41364957729263,3.1247300294234
1.2302687708124,0.053049817105863,0.41007548500409,3.1698865816213
1.2589254117942,0.051426861541313,0.4067896901241,3.2177318823613
1.2882495516931,0.049893488573534,0.40385344071602,3.2689155687679
1.3182567385564,0.048462652780832,0.40140899427942,3.3248114051269
1.3489628825917,0.047117032237291,0.39935382087177,3.3848370042003
1.3803842646029,0.04583980217286,0.39757828038447,3.4482803489727
1.4125375446228,0.044609655272289,0.39592122398964,3.5138943497469
1.4454397707459,0.043416557436337,0.39430773891178,3.5810898455895
1.4791083881682,0.042249261775865,0.39264406849845,3.6490428009109
1.5135612484362,0.041097353425751,0.39083529049733,3.716838471706
1.5488166189125,0.039953324408169,0.38880589220363,3.783665666163
1.5848931924611,0.038813360946129,0.38651038496204,3.8489394899568
1.6218100973589,0.037689355823043,0.38405960499427,3.913619030288
1.6595869074376,0.036580364945759,0.38144150755195,3.9774787348144
1.6982436524617,0.035473410822815,0.37851479968747,4.0388970290474
1.7378008287494,0.034380001905334,0.37539269111418,4.0988849543979
1.7782794100389,0.03329093400654,0.37196827106031,4.1560983133851
1.81970085861,0.032197594054401,0.36813180205538,4.2090419382133
1.8620871366629,0.031086430579183,0.36370625859634,4.2553049699675
1.9054607179632,0.02997864210825,0.35891521874312,4.297063682213
1.949844599758,0.028847947207651,0.35342301776205,4.3298689014138
1.9952623149689,0.027697896135413,0.34723756223389,4.3531798962874
2.0417379446695,0.026532960026435,0.34038124227508,4.366621363666
2.089296130854,0.025377877357696,0.3331464658852,4.373358975909
2.1379620895022,0.024220080962524,0.3253535178131,4.3705432577682
2.1877616239496,0.023064378379703,0.31704555625503,4.358144108038
2.2387211385683,0.02191691514647,0.30828993236211,4.3364990812197
2.2908676527678,0.020802774653929,0.2994340475486,4.310037979208
2.3442288153199,0.019711332099281,0.29033265880999,4.2763752519168
2.3988329190195,0.018641778350191,0.28097472587204,4.2349391295095
2.454708915685,0.017606647362393,0.27155423627925,4.1882876236117
2.5118864315096,0.016608374044971,0.26212414897486,4.1370136107092
2.5703957827689,0.015635958703663,0.25252502977483,4.0783486239215
2.6302679918954,0.01469005720432,0.24277468719185,4.0122068907783
2.6915348039269,0.013770861586053,0.23288473864426,3.9384101825793
2.7542287033382,0.012878198442855,0.22286148969428,3.8566918974844
2.8183829312645,0.012012645620937,0.21272502413584,3.7670249603239
2.8840315031266,0.011172456733381,0.20245504232148,3.668668864828
2.9512092266664,0.010358002780143,0.19206840925838,3.5615238398821
3.019951720402,0.0095704566831974,0.18159863433022,3.4458192625749
3.0902954325136,0.0088097862664006,0.17105874774325,3.3214307696756
3.1622776601684,0.0080767569809165,0.16047852795189,3.188576552997
3.2359365692963,0.0073725223278236,0.14989806019029,3.0477260630343
3.3113112148259,0.0067941107372497,0.14135544346071,2.9409825904697
3.388441561392,0.0064728152355015,0.13780758646594,2.9339522598153
3.4673685045253,0.0061582381568406,0.13416412313728,2.9229158533273
3.5481338923358,0.0058639714700617,0.1307289475691,2.9144169305353
3.630780547701,0.0055755973514551,0.12719537479891,2.9016914871035
3.7153522909717,0.0053023491693857,0.12377936194468,2.8895363081504
3.8018939632056,0.0050398825929071,0.12039275027097,2.8759428519636
3.8904514499428,0.0047865645844015,0.11700484332576,2.8601167121613
3.981071705535,0.0045474459293347,0.11374896667514,2.8452954956973
4.0738027780411,0.0043133637194998,0.11040684442092,2.8260244411755
4.1686938347034,0.0040958917973143,0.10728237800288,2.8100128615457
4.2657951880159,0.0038835498783568,0.1040899508893,2.7899005331486
4.3651583224017,0.0036840648231506,0.10104322042326,2.7713226785113
4.4668359215096,0.0034919084705018,0.098003766691412,2.750569886594
4.5708818961488,0.0033090597446786,0.095035206913419,2.7293827400972
4.677351412872,0.003134869979551,0.092129655918833,2.7075679549996
4.7863009232264,0.0029677921459666,0.089251063011468,2.6840667596964
4.8977881936845,0.002811434202166,0.086518272656336,2.6624885966277
5.0118723362727,0.0026592387141555,0.083740826126417,2.637042670523
5.1286138399136,0.0025197487858486,0.08119647225592,2.6164779377346
5.2480746024977,0.002382347284718,0.078557017551526,2.5903884988461
5.3703179637025,0.0022560736976235,0.0761260329486,2.5686983978386
5.4954087385762,0.0021332260843301,0.07365747070173,2.5432948856333
5.6234132519035,0.0020192535434266,0.071346187347639,2.5208713713119
5.7543993733716,0.0019108622436311,0.069089061867647,2.4979814665662
5.8884365535559,0.0018083730254805,0.066906442194004,2.4754140567155
6.0255958607436,0.0017113248349669,0.064790654808904,2.4529702747215
6.1659500186148,0.0016195343152885,0.062743692081527,2.430804249628
6.3095734448019,0.0015324463695006,0.060752646426887,2.4084914952509
6.4565422903466,0.0014506107015897,0.058847876116404,2.3873204021012
6.606934480076,0.0013740729807443,0.057041339585768,2.3679342126183
6.7608297539198,0.0013014954874163,0.055286943749435,2.3485645387993
6.9183097091894,0.0012329455663926,0.053594943755574,2.3297200415485
7.0794578438414,0.00116897905483,0.051998000758011,2.3129516920414
7.2443596007499,0.0011054174866681,0.050316016014469,2.2902672502489
7.4131024130092,0.0010493792474822,0.048877883013381,2.2766292106517
7.5857757502918,0.00099368646742371,0.047361919100397,2.2574035718613
